# Time(s)	Cumulative_Traffic(MB)
0.01	0
0.11	0
0.21	0
0.31	0
0.41	0
0.51	0
0.61	0
0.71	0
0.81	0
0.91	0
1.01	0
1.11	0
1.21	0
1.31	0
1.41	0
1.51	0
1.61	0
1.71	0
1.81	0
1.91	0
2.01	0.788574
2.11	2.46429
2.21	4.04144
2.31	6.21002
2.41	7.88574
2.51	9.46289
2.61	11.6315
2.71	13.3072
2.81	14.8843
2.91	17.0529
3.01	18.7286
3.11	21.1813
3.21	24.0718
3.31	26.3326
3.41	28.0303
3.51	29.9276
3.61	31.3499
3.71	32.4811
3.81	34.0693
3.91	35.356
4.01	36.4504
4.11	38.0823
4.21	39.3974
4.31	40.4901
4.41	42.0716
4.51	43.3861
4.61	44.5191
4.71	46.1154
4.81	47.4029
4.91	48.4912
5.01	50.122
5.11	51.4417
5.21	52.537
5.31	54.1182
5.41	55.4188
5.51	56.5553
5.61	58.151
5.71	59.4376
5.81	60.5321
5.91	62.164
6.01	63.4791
6.11	64.5718
6.21	66.1533
6.31	67.4677
6.41	68.5961
6.51	70.1866
6.61	71.4721
6.71	72.5755
6.81	74.2083
6.91	75.5153
7.01	76.6062
7.11	78.2025
7.21	79.5396
7.31	80.6494
7.41	82.2332
7.51	83.154
7.61	83.2004
7.71	83.2355
7.81	83.2444
7.91	83.2488
8.01	83.2818
8.11	83.3306
8.21	83.3497
8.31	83.3558
8.41	83.3598
8.51	83.4123
8.61	83.4436
8.71	83.4503
8.81	83.4549
8.91	83.5013
9.01	83.5364
9.11	83.5454
9.21	83.5497
9.31	83.5828
9.41	83.6315
9.51	83.6506
9.61	83.6567
9.71	83.6608
9.81	83.7132
9.91	83.7446
10.01	83.7512
10.11	83.7559
10.21	83.8022
10.31	83.8437
10.41	83.8576
10.51	83.8628
10.61	83.873
10.71	83.9249
10.81	83.9516
10.91	83.9576
11.01	83.9617
11.11	84.0142
11.21	84.0455
11.31	84.0522
11.41	84.0568
11.51	84.1032
11.61	84.1446
11.71	84.1586
11.81	84.1638
11.91	84.1739
12.01	84.2258
12.11	84.2525
12.21	84.2586
12.31	84.2626
12.41	84.3163
12.51	84.3545
12.61	84.3656
12.71	84.3696
12.81	84.3887
12.91	84.4409
13.01	84.4595
13.11	84.4647
13.21	84.4749
13.31	84.5267
13.41	84.5534
13.51	84.5595
13.61	84.5636
13.71	84.6172
13.81	84.6555
13.91	84.6665
14.01	84.6705
14.11	84.6897
14.21	84.7419
14.31	84.7604
14.41	84.7656
14.51	84.7758
14.61	84.8306
14.71	84.8642
14.81	84.8726
14.91	84.877
15.01	84.91
15.11	84.9541
15.21	84.9674
15.31	84.9715
15.41	84.9906
15.51	85.0428
15.61	85.0614
15.71	85.0666
15.81	85.0767
15.91	85.1315
16.01	85.1651
16.11	85.1736
16.21	85.1779
16.31	85.211
16.41	85.255
16.51	85.2684
16.61	85.2724
16.71	85.2915
16.81	85.3472
16.91	85.3727
17.01	85.3794
17.11	85.384
17.21	85.4304
17.31	85.4655
17.41	85.4745
17.51	85.4788
17.61	85.5119
17.71	85.556
17.81	85.5693
17.91	85.5733
18.01	85.5925
18.11	85.6481
18.21	85.6737
18.31	85.6803
18.41	85.685
18.51	85.7314
18.61	85.7664
18.71	85.7754
18.81	85.7798
18.91	85.8128
19.01	85.8615
19.11	85.8807
19.21	85.8867
19.31	85.8908
19.41	85.9433
19.51	85.9746
19.61	85.9813
19.71	85.9859
19.81	86.0323
19.91	86.0674
20.01	86.0764
20.11	86.0807
20.21	86.1138
20.31	86.1625
20.41	86.1816
20.51	86.1877
20.61	86.1917
20.71	86.2442
20.81	86.2755
20.91	86.2822
21.01	86.2868
21.11	86.3332
21.21	86.3747
21.31	86.3886
21.41	86.3938
21.51	86.404
21.61	86.4559
21.71	86.4825
21.81	86.4886
21.91	86.4927
22.01	86.5452
22.11	86.5765
22.21	86.5831
22.31	86.5878
22.41	86.6342
22.51	86.6756
22.61	86.6895
22.71	86.6947
22.81	86.7049
22.91	86.7568
23.01	86.7835
23.11	86.7896
23.21	86.7936
23.31	86.8472
23.41	86.8855
23.51	86.8965
23.61	86.9006
23.71	86.9197
23.81	86.9719
23.91	86.9905
24.01	86.9957
24.11	87.0058
24.21	87.0577
24.31	87.0844
24.41	87.0905
24.51	87.0945
24.61	87.1482
24.71	87.1864
24.81	87.1975
24.91	87.2015
25.01	87.2207
25.11	87.2728
25.21	87.2914
25.31	87.2966
25.41	87.3068
25.51	87.3616
25.61	87.3952
25.71	87.4036
25.81	87.4079
25.91	87.441
26.01	87.4851
26.11	87.4984
26.21	87.5025
26.31	87.5216
26.41	87.5738
26.51	87.5923
26.61	87.5975
26.71	87.6077
26.81	87.6625
26.91	87.6961
27.01	87.7045
27.11	87.7089
27.21	87.7419
27.31	87.786
27.41	87.7993
27.51	87.8034
27.61	87.8225
27.71	87.8782
27.81	87.9037
27.91	87.9104
28.01	87.915
28.11	87.9614
28.21	87.9965
28.31	88.0055
28.41	88.0098
28.51	88.0429
28.61	88.0869
28.71	88.1003
28.81	88.1043
28.91	88.1235
29.01	88.1791
29.11	88.2046
29.21	88.2113
29.31	88.2159
29.41	88.2623
29.51	88.2974
29.61	88.3064
29.71	88.3107
29.81	88.3438
29.91	88.3925
30.01	88.4116
30.11	88.4177
30.21	88.4218
30.31	88.4743
30.41	88.5056
30.51	88.5122
30.61	88.5169
30.71	88.5633
30.81	88.5983
30.91	88.6073
31.01	88.6117
31.11	88.6447
31.21	88.6934
31.31	88.7126
31.41	88.7187
31.51	88.7227
31.61	88.7752
31.71	88.8065
31.81	88.8132
31.91	88.8178
32.01	88.8642
32.11	88.9057
32.21	88.9196
32.31	88.9248
32.41	88.9349
32.51	88.9868
32.61	89.0135
32.71	89.0196
32.81	89.0237
32.91	89.0761
33.01	89.1074
33.11	89.1141
33.21	89.1187
33.31	89.1651
33.41	89.2066
33.51	89.2205
33.61	89.2257
33.71	89.2359
33.81	89.2878
33.91	89.3144
34.01	89.3205
34.11	89.3246
34.21	89.3782
34.31	89.4165
34.41	89.4275
34.51	89.4316
34.61	89.4507
34.71	89.5029
34.81	89.5214
34.91	89.5267
35.01	89.5368
35.11	89.5887
35.21	89.6154
35.31	89.6215
35.41	89.6255
35.51	89.6792
35.61	89.7174
35.71	89.7284
35.81	89.7325
35.91	89.7516
36.01	89.8038
36.11	89.8224
36.21	89.8276
36.31	89.8377
36.41	89.8925
36.51	89.9262
36.61	89.9346
36.71	89.9389
36.81	89.972
36.91	90.016
37.01	90.0294
37.11	90.0334
37.21	90.0526
37.31	90.1048
37.41	90.1233
37.51	90.1285
37.61	90.1387
37.71	90.1935
37.81	90.2271
37.91	90.2355
38.01	90.2399
38.11	90.2729
38.21	90.317
38.31	90.3303
38.41	90.3344
38.51	90.3535
38.61	90.4092
38.71	90.4347
38.81	90.4413
38.91	90.446
39.01	90.4924
39.11	90.5275
39.21	90.5364
39.31	90.5408
39.41	90.5738
39.51	90.6179
39.61	90.6312
39.71	90.6353
39.81	90.6544
39.91	90.7101
40.01	90.7356
40.11	90.7423
40.21	90.7469
40.31	90.7933
40.41	90.8284
40.51	90.8374
40.61	90.8417
40.71	90.8748
40.81	90.9235
40.91	90.9426
41.01	90.9487
41.11	90.9528
41.21	91.0052
41.31	91.0365
41.41	91.0432
41.51	91.0479
41.61	91.0942
41.71	91.1293
41.81	91.1383
41.91	91.1427
42.01	91.1757
42.11	91.2244
42.21	91.2435
42.31	91.2496
42.41	91.2537
42.51	91.3062
42.61	91.3375
42.71	91.3441
42.81	91.3488
42.91	91.3952
43.01	91.4366
43.11	91.4505
43.21	91.4558
43.31	91.4659
43.41	91.5178
43.51	91.5445
43.61	91.5506
43.71	91.5546
43.81	91.6071
43.91	91.6384
44.01	91.6451
44.11	91.6497
44.21	91.6961
44.31	91.7376
44.41	91.7515
44.51	91.7567
44.61	91.7668
44.71	91.8187
44.81	91.8454
44.91	91.8515
45.01	91.8556
45.11	91.9092
45.21	91.9475
45.31	91.9585
45.41	91.9625
45.51	91.9817
45.61	92.0339
45.71	92.0524
45.81	92.0576
45.91	92.0678
46.01	92.1197
46.11	92.1463
46.21	92.1524
46.31	92.1565
46.41	92.2101
46.51	92.2484
46.61	92.2594
46.71	92.2635
46.81	92.2826
46.91	92.3348
47.01	92.3533
47.11	92.3586
47.21	92.3687
47.31	92.4235
47.41	92.4571
47.51	92.4655
47.61	92.4699
47.71	92.5029
47.81	92.547
47.91	92.5603
48.01	92.5644
48.11	92.5835
48.21	92.6357
48.31	92.6543
48.41	92.6595
48.51	92.6696
48.61	92.7244
48.71	92.7581
48.81	92.7665
48.91	92.7708
49.01	92.8039
49.11	92.8479
49.21	92.8613
49.31	92.8653
49.41	92.8845
49.51	92.9401
49.61	92.9657
49.71	92.9723
49.81	92.977
49.91	93.0233
50.01	93.0558
